# data from ifeffit
#------------------------
#   k         chi       chi_kw      win       win2
  0.0000000       0.15266914        0.0000000        0.0000000        0.0000000
  0.50000000E-01   0.13842040       0.34605101E-03    0.0000000        0.0000000
  0.10000000       0.12417166       0.12417166E-02    0.0000000        0.0000000
  0.15000000       0.10992292       0.24732657E-02    0.0000000        0.0000000
  0.20000000       0.95674181E-01   0.38269672E-02    0.0000000        0.0000000
  0.25000000       0.81425440E-01   0.50890900E-02    0.0000000        0.0000000
  0.30000000       0.73561819E-01   0.66205637E-02    0.0000000        0.0000000
  0.35000000       0.95385960E-01   0.11684780E-01    0.0000000        0.0000000
  0.40000000       0.11721010       0.18753616E-01    0.0000000        0.0000000
  0.45000000       0.13936253       0.28220912E-01    0.0000000        0.0000000
  0.50000000       0.16170757       0.40426894E-01    0.0000000        0.0000000
  0.55000000       0.18404310       0.55673038E-01    0.0000000        0.0000000
  0.60000000       0.20449273       0.73617384E-01    0.0000000        0.0000000
  0.65000000       0.22494237       0.95038150E-01    0.0000000        0.0000000
  0.70000000       0.24336356       0.11924815        0.0000000        0.0000000
  0.75000000       0.26134408       0.14700605        0.0000000        0.0000000
  0.80000000       0.28061702       0.17959489        0.0000000        0.0000000
  0.85000000       0.30493615       0.22031637        0.0000000        0.0000000
  0.90000000       0.33639157       0.27247718        0.0000000        0.0000000
  0.95000000       0.36518006       0.32957500        0.0000000        0.0000000
  1.0000000       0.39786892       0.39786892        0.0000000        0.0000000
  1.0500000       0.43879085       0.48376691        0.0000000        0.0000000
  1.1000000       0.47554095       0.57540455        0.0000000        0.0000000
  1.1500000       0.50186183       0.66371227        0.0000000        0.0000000
  1.2000000       0.50731261       0.73053015        0.0000000        0.0000000
  1.2500000       0.49044718       0.76632372        0.0000000        0.0000000
  1.3000000       0.45545375       0.76971684        0.0000000        0.0000000
  1.3500000       0.40215537       0.73292816        0.0000000        0.0000000
  1.4000000       0.32299879       0.63307762        0.0000000        0.0000000
  1.4500000       0.26377558       0.55458817        0.0000000        0.0000000
  1.5000000       0.20961409       0.47163170        0.0000000        0.0000000
  1.5500000       0.14854546       0.35688047        0.0000000        0.0000000
  1.6000000       0.11376558       0.29123988        0.0000000        0.0000000
  1.6500000       0.85499301E-01   0.23277185        0.0000000        0.0000000
  1.7000000       0.67393004E-01   0.19476578        0.0000000        0.0000000
  1.7500000       0.42804715E-01   0.13108944        0.0000000        0.0000000
  1.8000000       0.21107541E-01   0.68388434E-01   0.27390498E-02   0.13695249E-01
  1.8500000       0.13705091E-02   0.46905675E-02   0.10926189E-01   0.54630947E-01
  1.9000000      -0.13890051E-01  -0.50143086E-01   0.24471719E-01   0.12235860
  1.9500000      -0.23037236E-01  -0.87599089E-01   0.43227231E-01   0.21613616
  2.0000000      -0.25520018E-01  -0.10208007       0.66987237E-01   0.33493619
  2.0500000      -0.19444703E-01  -0.81716363E-01   0.95491417E-01   0.47745708
  2.1000000      -0.33558749E-02  -0.14799408E-01   0.12842747       0.64213736
  2.1500000       0.15164530E-01   0.70098038E-01   0.16543455       0.82717276
  2.2000000       0.37326953E-01   0.18066245       0.20610720        1.0305360
  2.2500000       0.49402005E-01   0.25009765       0.24999979        1.2499989
  2.3000000       0.48410116E-01   0.25608952       0.29663143        1.4831572
  2.3500000       0.31559622E-01   0.17428801       0.34549122        1.7274561
  2.4000000       0.14275478E-01   0.82226751E-01   0.39604384        1.9802192
  2.4500000      -0.12980863E-01  -0.77917632E-01   0.44773543        2.2386771
  2.5000000      -0.34611723E-01  -0.21632327       0.49999963        2.4999982
  2.5500000      -0.55053363E-01  -0.35798450       0.55226384        2.7613192
  2.6000000      -0.71790374E-01  -0.48530293       0.60395544        3.0197772
  2.6500000      -0.84423184E-01  -0.59286181       0.65450808        3.2725404
  2.7000000      -0.93147586E-01  -0.67904590       0.70336790        3.5168395
  2.7500000      -0.99871434E-01  -0.75527772       0.74999958        3.7499979
  2.8000000      -0.10498988      -0.82312068       0.79389221        3.9694611
  2.8500000      -0.10819414      -0.87880688       0.83456490        4.1728245
  2.9000000      -0.10900142      -0.91670196       0.87157204        4.3578602
  2.9500000      -0.10688828      -0.93019529       0.90450815        4.5225408
  3.0000000      -0.10160118      -0.91441059       0.93301240        4.6650620
  3.0500000      -0.93826554E-01  -0.87282152       0.95677247        4.7838624
  3.1000000      -0.85772545E-01  -0.82427416       0.97552805        4.8776403
  3.1500000      -0.76989107E-01  -0.76392442       0.98907366        4.9453683
  3.2000000      -0.67408092E-01  -0.69025887       0.99726087        4.9863044
  3.2500000      -0.55628044E-01  -0.58757121        1.0000000        5.0000000
  3.3000000      -0.36805548E-01  -0.40081242        1.0000000        5.0000000
  3.3500000      -0.93909992E-02  -0.10539049        1.0000000        5.0000000
  3.4000000       0.20517916E-01   0.23718711        1.0000000        5.0000000
  3.4500000       0.46985063E-01   0.55923971        1.0000000        5.0000000
  3.5000000       0.70233778E-01   0.86036378        1.0000000        5.0000000
  3.5500000       0.88934582E-01    1.1207981        1.0000000        5.0000000
  3.6000000       0.10044296        1.3017407        1.0000000        5.0000000
  3.6500000       0.10647212        1.4184749        1.0000000        5.0000000
  3.7000000       0.10714327        1.4667914        1.0000000        5.0000000
  3.7500000       0.10134952        1.4252276        1.0000000        5.0000000
  3.8000000       0.89066376E-01    1.2861185        1.0000000        5.0000000
  3.8500000       0.72545939E-01    1.0753122        1.0000000        5.0000000
  3.9000000       0.54998166E-01   0.83652211        1.0000000        5.0000000
  3.9500000       0.38610108E-01   0.60241421        1.0000000        5.0000000
  4.0000000       0.24252593E-01   0.38804149        1.0000000        5.0000000
  4.0500000       0.13016178E-01   0.21349786        1.0000000        5.0000000
  4.1000000       0.15047501E-02   0.25294849E-01    1.0000000        5.0000000
  4.1500000      -0.99242825E-02  -0.17092095        1.0000000        5.0000000
  4.2000000      -0.20413154E-01  -0.36008803        1.0000000        5.0000000
  4.2500000      -0.29532751E-01  -0.53343531        1.0000000        5.0000000
  4.3000000      -0.35820552E-01  -0.66232201        1.0000000        5.0000000
  4.3500000      -0.38200012E-01  -0.72283972        1.0000000        5.0000000
  4.4000000      -0.36449380E-01  -0.70566001        1.0000000        5.0000000
  4.4500000      -0.31239830E-01  -0.61862673        1.0000000        5.0000000
  4.5000000      -0.24304601E-01  -0.49216817        1.0000000        5.0000000
  4.5500000      -0.17622653E-01  -0.36483297        1.0000000        5.0000000
  4.6000000      -0.12992349E-01  -0.27491811        1.0000000        5.0000000
  4.6500000      -0.11441294E-01  -0.24738938        1.0000000        5.0000000
  4.7000000      -0.11885108E-01  -0.26254203        1.0000000        5.0000000
  4.7500000      -0.12354296E-01  -0.27874380        1.0000000        5.0000000
  4.8000000      -0.11380104E-01  -0.26219759        1.0000000        5.0000000
  4.8500000      -0.85091104E-02  -0.20015555        1.0000000        5.0000000
  4.9000000      -0.33264008E-02  -0.79866882E-01    1.0000000        5.0000000
  4.9500000       0.36448147E-02   0.89307071E-01    1.0000000        5.0000000
  5.0000000       0.11381040E-01   0.28452601        1.0000000        5.0000000
  5.0500000       0.17585256E-01   0.44846799        1.0000000        5.0000000
  5.1000000       0.19845753E-01   0.51618803        1.0000000        5.0000000
  5.1500000       0.17473907E-01   0.46345170        1.0000000        5.0000000
  5.2000000       0.11314774E-01   0.30595148        1.0000000        5.0000000
  5.2500000       0.26453850E-02   0.72913423E-01    1.0000000        5.0000000
  5.3000000      -0.73577892E-02  -0.20668030        1.0000000        5.0000000
  5.3500000      -0.17691812E-01  -0.50638390        1.0000000        5.0000000
  5.4000000      -0.27221701E-01  -0.79378481        1.0000000        5.0000000
  5.4500000      -0.33286441E-01  -0.98869050        1.0000000        5.0000000
  5.5000000      -0.34071223E-01   -1.0306545        1.0000000        5.0000000
  5.5500000      -0.27043652E-01  -0.83301210        1.0000000        5.0000000
  5.6000000      -0.18221234E-01  -0.57141789        1.0000000        5.0000000
  5.6500000      -0.67998479E-02  -0.21706815        1.0000000        5.0000000
  5.7000000       0.35975222E-02   0.11688350        1.0000000        5.0000000
  5.7500000       0.10229980E-01   0.33822872        1.0000000        5.0000000
  5.8000000       0.12856992E-01   0.43250922        1.0000000        5.0000000
  5.8500000       0.12617666E-01   0.43180807        1.0000000        5.0000000
  5.9000000       0.11488826E-01   0.39992602        1.0000000        5.0000000
  5.9500000       0.11115194E-01   0.39350566        1.0000000        5.0000000
  6.0000000       0.12464423E-01   0.44871923        1.0000000        5.0000000
  6.0500000       0.15330451E-01   0.56113283        1.0000000        5.0000000
  6.1000000       0.18712183E-01   0.69628032        1.0000000        5.0000000
  6.1500000       0.21514986E-01   0.81375056        1.0000000        5.0000000
  6.2000000       0.23543154E-01   0.90499883        1.0000000        5.0000000
  6.2500000       0.24187106E-01   0.94480882        1.0000000        5.0000000
  6.3000000       0.22824765E-01   0.90591491        1.0000000        5.0000000
  6.3500000       0.19683388E-01   0.79368340        1.0000000        5.0000000
  6.4000000       0.14770963E-01   0.60501863        1.0000000        5.0000000
  6.4500000       0.79801414E-02   0.33199383        1.0000000        5.0000000
  6.5000000       0.32578437E-03   0.13764390E-01    1.0000000        5.0000000
  6.5500000      -0.80456438E-02  -0.34517823        1.0000000        5.0000000
  6.6000000      -0.15988572E-01  -0.69646218        1.0000000        5.0000000
  6.6500000      -0.22838357E-01   -1.0099692        1.0000000        5.0000000
  6.7000000      -0.26756853E-01   -1.2011151        1.0000000        5.0000000
  6.7500000      -0.27772373E-01   -1.2653788        1.0000000        5.0000000
  6.8000000      -0.26384878E-01   -1.2200368        1.0000000        5.0000000
  6.8500000      -0.22298922E-01   -1.0463212        1.0000000        5.0000000
  6.9000000      -0.16667169E-01  -0.79352390        1.0000000        5.0000000
  6.9500000      -0.10706851E-01  -0.51716767        1.0000000        5.0000000
  7.0000000      -0.47364020E-02  -0.23208370        1.0000000        5.0000000
  7.0500000       0.54399171E-03   0.27037748E-01    1.0000000        5.0000000
  7.1000000       0.44041502E-02   0.22201321        1.0000000        5.0000000
  7.1500000       0.73288697E-02   0.37467014        1.0000000        5.0000000
  7.2000000       0.91556726E-02   0.47463007        1.0000000        5.0000000
  7.2500000       0.10295950E-01   0.54118086        1.0000000        5.0000000
  7.3000000       0.10752467E-01   0.57299898        1.0000000        5.0000000
  7.3500000       0.10540982E-01   0.56945017        1.0000000        5.0000000
  7.4000000       0.97716314E-02   0.53509454        1.0000000        5.0000000
  7.4500000       0.84826715E-02   0.47080948        1.0000000        5.0000000
  7.5000000       0.67172822E-02   0.37784713        1.0000000        5.0000000
  7.5500000       0.46797530E-02   0.26675762        1.0000000        5.0000000
  7.6000000       0.24117357E-02   0.13930185        1.0000000        5.0000000
  7.6500000       0.32298009E-03   0.18901602E-01    1.0000000        5.0000000
  7.7000000      -0.12815646E-02  -0.75983963E-01    1.0000000        5.0000000
  7.7500000      -0.22216384E-02  -0.13343716        1.0000000        5.0000000
  7.8000000      -0.23987508E-02  -0.14594000        1.0000000        5.0000000
  7.8500000      -0.24036344E-02  -0.14811796        1.0000000        5.0000000
  7.9000000      -0.27282905E-02  -0.17027261        1.0000000        5.0000000
  7.9500000      -0.33699893E-02  -0.21299175        1.0000000        5.0000000
  8.0000000      -0.40289499E-02  -0.25785279        1.0000000        5.0000000
  8.0500000      -0.45258338E-02  -0.29328534        1.0000000        5.0000000
  8.1000000      -0.47008736E-02  -0.30842432        1.0000000        5.0000000
  8.1500000      -0.39180364E-02  -0.26024577        1.0000000        5.0000000
  8.2000000      -0.31673081E-02  -0.21296980        1.0000000        5.0000000
  8.2500000      -0.19432820E-02  -0.13226463        1.0000000        5.0000000
  8.3000000      -0.62352163E-03  -0.42954405E-01    1.0000000        5.0000000
  8.3500000       0.14470775E-02   0.10089386        1.0000000        5.0000000
  8.4000000       0.31330051E-02   0.22106484        1.0000000        5.0000000
  8.4500000       0.44150152E-02   0.31524312        1.0000000        5.0000000
  8.5000000       0.53028095E-02   0.38312799        1.0000000        5.0000000
  8.5500000       0.55161042E-02   0.40324101        1.0000000        5.0000000
  8.6000000       0.49365883E-02   0.36511007        1.0000000        5.0000000
  8.6500000       0.38186158E-02   0.28571838        1.0000000        5.0000000
  8.7000000       0.21765386E-02   0.16474221        1.0000000        5.0000000
  8.7500000       0.33312856E-03   0.25505156E-01    1.0000000        5.0000000
  8.8000000      -0.17876227E-02  -0.13843350        1.0000000        5.0000000
  8.8500000      -0.34162002E-02  -0.26756534        1.0000000        5.0000000
  8.9000000      -0.42438569E-02  -0.33615591        1.0000000        5.0000000
  8.9500000      -0.46793289E-02  -0.37482595        1.0000000        5.0000000
  9.0000000      -0.46079577E-02  -0.37324458        1.0000000        5.0000000
  9.0500000      -0.19761279E-02  -0.16184981        1.0000000        5.0000000
  9.1000000      -0.22693888E-02  -0.18792809        1.0000000        5.0000000
  9.1500000      -0.34560118E-02  -0.28934595        1.0000000        5.0000000
  9.2000000      -0.27270108E-02  -0.23081419        1.0000000        5.0000000
  9.2500000      -0.18986954E-02  -0.16245712        1.0000000        5.0000000
  9.3000000      -0.92412214E-03  -0.79927324E-01    1.0000000        5.0000000
  9.3500000       0.20649722E-03   0.18052503E-01    1.0000000        5.0000000
  9.4000000       0.13869933E-02   0.12255472        1.0000000        5.0000000
  9.4500000       0.25329835E-02   0.22620175        1.0000000        5.0000000
  9.5000000       0.33796526E-02   0.30501364        1.0000000        5.0000000
  9.5500000       0.38985647E-02   0.35555884        1.0000000        5.0000000
  9.6000000       0.40792085E-02   0.37593985        1.0000000        5.0000000
  9.6500000       0.40048534E-02   0.37294196        1.0000000        5.0000000
  9.7000000       0.37592430E-02   0.35370717        1.0000000        5.0000000
  9.7500000       0.28984976E-02   0.27553842        1.0000000        5.0000000
  9.8000000       0.16167226E-02   0.15527004        1.0000000        5.0000000
  9.8500000       0.39018837E-03   0.37857051E-01    1.0000000        5.0000000
  9.9000000      -0.79925786E-03  -0.78335263E-01    1.0000000        5.0000000
  9.9500000      -0.15531433E-02  -0.15376507        1.0000000        5.0000000
  10.000000      -0.19379925E-02  -0.19379925        1.0000000        5.0000000
  10.050000      -0.20361417E-02  -0.20565540        1.0000000        5.0000000
  10.100000      -0.17733785E-02  -0.18090234        1.0000000        5.0000000
  10.150000      -0.15767813E-02  -0.16244395        1.0000000        5.0000000
  10.200000      -0.14153540E-02  -0.14725343        1.0000000        5.0000000
  10.250000      -0.12389850E-02  -0.13017086        1.0000000        5.0000000
  10.300000      -0.12105395E-02  -0.12842614        1.0000000        5.0000000
  10.350000      -0.11510581E-02  -0.12330422        1.0000000        5.0000000
  10.400000      -0.10458189E-02  -0.11311577        1.0000000        5.0000000
  10.450000      -0.88305557E-03  -0.96431876E-01    1.0000000        5.0000000
  10.500000      -0.54800516E-03  -0.60417569E-01    1.0000000        5.0000000
  10.550000      -0.85984977E-03  -0.95703429E-01    1.0000000        5.0000000
  10.600000      -0.90297595E-03  -0.10145838        1.0000000        5.0000000
  10.650000       0.59887043E-03   0.67925382E-01    1.0000000        5.0000000
  10.700000       0.79086902E-03   0.90546594E-01    1.0000000        5.0000000
  10.750000       0.12013636E-02   0.13883258        1.0000000        5.0000000
  10.800000       0.15721744E-02   0.18337842        1.0000000        5.0000000
  10.850000       0.15305839E-02   0.18018417        1.0000000        5.0000000
  10.900000       0.13228635E-02   0.15716941        1.0000000        5.0000000
  10.950000       0.10412396E-02   0.12484723        1.0000000        5.0000000
  11.000000       0.74675779E-03   0.90357692E-01    1.0000000        5.0000000
  11.050000       0.44199583E-03   0.53968796E-01    1.0000000        5.0000000
  11.100000       0.14866395E-03   0.18316886E-01    1.0000000        5.0000000
  11.150000       0.56981149E-04   0.70840388E-02    1.0000000        5.0000000
  11.200000      -0.44554633E-04  -0.55889332E-02    1.0000000        5.0000000
  11.250000      -0.33088161E-03  -0.41877204E-01    1.0000000        5.0000000
  11.300000      -0.46510500E-03  -0.59389258E-01    1.0000000        5.0000000
  11.350000      -0.55894935E-03  -0.72005252E-01    1.0000000        5.0000000
  11.400000      -0.67458740E-03  -0.87669379E-01    1.0000000        5.0000000
  11.450000      -0.62227231E-03  -0.81581456E-01    1.0000000        5.0000000
  11.500000      -0.57147635E-03  -0.75577747E-01    1.0000000        5.0000000
  11.550000      -0.58727591E-03  -0.78344074E-01    1.0000000        5.0000000
  11.600000      -0.44668019E-03  -0.60105287E-01    1.0000000        5.0000000
  11.650000      -0.36108729E-03  -0.49007669E-01    1.0000000        5.0000000
  11.700000      -0.41158700E-03  -0.56342144E-01    1.0000000        5.0000000
  11.750000       0.10371699E-03   0.14319427E-01    1.0000000        5.0000000
  11.800000       0.19319466E-03   0.26900425E-01    1.0000000        5.0000000
  11.850000       0.34705075E-03   0.48733734E-01    1.0000000        5.0000000
  11.900000       0.54274717E-03   0.76858427E-01    1.0000000        5.0000000
  11.950000       0.49349503E-03   0.70472323E-01    1.0000000        5.0000000
  12.000000       0.31914060E-03   0.45956246E-01    1.0000000        5.0000000
  12.050000       0.30435544E-03   0.44193171E-01    1.0000000        5.0000000
  12.100000       0.25241459E-03   0.36956021E-01    1.0000000        5.0000000
  12.150000       0.21420865E-03   0.31622016E-01    1.0000000        5.0000000
  12.200000       0.75310573E-04   0.11209226E-01    1.0000000        5.0000000
  12.250000      -0.19060480E-04  -0.28602632E-02    1.0000000        5.0000000
  12.300000      -0.10044258E-06  -0.15195957E-04   0.99726087        4.9863044
  12.350000      -0.80828417E-04  -0.12328152E-01   0.98907366        4.9453683
  12.400000      -0.23343261E-03  -0.35892598E-01   0.97552805        4.8776403
  12.450000      -0.27013056E-03  -0.41870913E-01   0.95677247        4.7838624
  12.500000      -0.20245652E-03  -0.31633831E-01   0.93301240        4.6650620
  12.550000      -0.17372043E-03  -0.27361402E-01   0.90450815        4.5225408
  12.600000      -0.23045510E-03  -0.36587052E-01   0.87157204        4.3578602
  12.650000      -0.25314302E-03  -0.40508578E-01   0.83456490        4.1728245
  12.700000      -0.19835931E-03  -0.31993374E-01   0.79389221        3.9694611
  12.750000      -0.12345295E-03  -0.20068820E-01   0.74999958        3.7499979
  12.800000       0.78393902E-04   0.12844057E-01   0.70336790        3.5168395
  12.850000       0.31418986E-03   0.51879815E-01   0.65450808        3.2725404
  12.900000       0.33794806E-03   0.56237937E-01   0.60395544        3.0197772
  12.950000       0.33103851E-03   0.55515985E-01   0.55226384        2.7613192
  13.000000       0.30395646E-03   0.51368643E-01   0.49999963        2.4999982
  13.050000       0.27152471E-03   0.46241337E-01   0.44773543        2.2386771
  13.100000       0.17724478E-03   0.30416977E-01   0.39604384        1.9802192
  13.150000       0.15577203E-03   0.26936489E-01   0.34549122        1.7274561
  13.200000       0.10935288E-03   0.19053646E-01   0.29663143        1.4831572
  13.250000       0.56134116E-04   0.98550458E-02   0.24999979        1.2499989
  13.300000       0.35926077E-04   0.63549638E-02   0.20610720        1.0305360
  13.350000       0.66310867E-04   0.11818089E-01   0.16543455       0.82717276
  13.400000       0.23522957E-04   0.42237822E-02   0.12842747       0.64213736
  13.450000       0.37915311E-06   0.68589746E-04   0.95491417E-01   0.47745708
  13.500000      -0.17913983E-03  -0.32648235E-01   0.66987237E-01   0.33493619
  13.550000      -0.19365616E-03  -0.35555756E-01   0.43227231E-01   0.21613616
  13.600000      -0.12341138E-03  -0.22826169E-01   0.24471719E-01   0.12235860
  13.650000      -0.15863017E-03  -0.29556370E-01   0.10926189E-01   0.54630947E-01
  13.700000      -0.19389096E-03  -0.36391395E-01   0.27390498E-02   0.13695249E-01
  13.750000      -0.98743042E-04  -0.18668606E-01   0.10693949E-25   0.53469747E-25
  13.800000      -0.15036843E-03  -0.28636165E-01    0.0000000        0.0000000
  13.850000      -0.19439969E-03  -0.37290235E-01    0.0000000        0.0000000
  13.900000      -0.16217056E-03  -0.31332973E-01    0.0000000        0.0000000
  13.950000      -0.11207459E-03  -0.21809995E-01    0.0000000        0.0000000
  14.000000       0.57260027E-05   0.11222965E-02    0.0000000        0.0000000
  14.050000       0.68548143E-05   0.13531575E-02    0.0000000        0.0000000
  14.100000      -0.14424811E-03  -0.28677967E-01    0.0000000        0.0000000
  14.150000      -0.11022263E-03  -0.22069051E-01    0.0000000        0.0000000
  14.200000      -0.30580865E-04  -0.61663256E-02    0.0000000        0.0000000
  14.250000      -0.70633859E-04  -0.14343088E-01    0.0000000        0.0000000
  14.300000      -0.17956202E-03  -0.36718637E-01    0.0000000        0.0000000
  14.350000      -0.13613957E-03  -0.28034201E-01    0.0000000        0.0000000
  14.400000      -0.91988261E-04  -0.19074686E-01    0.0000000        0.0000000
  14.450000      -0.23476406E-04  -0.49019324E-02    0.0000000        0.0000000
  14.500000       0.14324770E-04   0.30117830E-02    0.0000000        0.0000000
  14.550000      -0.10979629E-03  -0.23244150E-01    0.0000000        0.0000000
  14.600000      -0.52985721E-04  -0.11294436E-01    0.0000000        0.0000000
  14.650000       0.53073848E-05   0.11390842E-02    0.0000000        0.0000000
  14.700000       0.19942342E-04   0.43093408E-02    0.0000000        0.0000000
  14.750000       0.43617794E-03   0.94895963E-01    0.0000000        0.0000000
  14.800000       0.27276267E-03   0.59745935E-01    0.0000000        0.0000000
  14.850000       0.92099372E-04   0.20309984E-01    0.0000000        0.0000000
  14.900000       0.17236332E-03   0.38266380E-01    0.0000000        0.0000000
  14.950000       0.12074282E-04   0.26986323E-02    0.0000000        0.0000000
  15.000000       0.12997519E-03   0.29244417E-01    0.0000000        0.0000000
  15.050000       0.21716210E-03   0.49187758E-01    0.0000000        0.0000000
  15.100000       0.19315948E-03   0.44042292E-01    0.0000000        0.0000000
  15.150000       0.21917250E-03   0.50305021E-01    0.0000000        0.0000000
  15.200000       0.18485133E-03   0.42708052E-01    0.0000000        0.0000000
  15.250000       0.16315385E-03   0.37943467E-01    0.0000000        0.0000000
  15.300000       0.22271105E-03   0.52134429E-01    0.0000000        0.0000000
  15.350000       0.18962826E-03   0.44680685E-01    0.0000000        0.0000000
  15.400000       0.40690779E-04   0.96502251E-02    0.0000000        0.0000000
  15.450000      -0.65533947E-04  -0.15643117E-01    0.0000000        0.0000000
  15.500000      -0.81040759E-04  -0.19470042E-01    0.0000000        0.0000000
  15.550000      -0.69832140E-04  -0.16885586E-01    0.0000000        0.0000000
  15.600000      -0.11956658E-03  -0.29097723E-01    0.0000000        0.0000000
  15.650000      -0.18168924E-03  -0.44499783E-01    0.0000000        0.0000000
  15.700000      -0.24297478E-03  -0.59890855E-01    0.0000000        0.0000000
  15.750000      -0.21437415E-03  -0.53178188E-01    0.0000000        0.0000000
  15.800000      -0.29261918E-03  -0.73049452E-01    0.0000000        0.0000000
