# data from ifeffit
#------------------------
#   energy      xmu       bkg       preline      normline      ee        chie
  6911.7671      -0.35992590E-01  -0.35992590E-01  -0.37455984E-01    1.5220655       -210.23290        0.0000000
  6916.8730      -0.39081634E-01  -0.39081634E-01  -0.40380298E-01    1.5148708       -205.12700        0.0000000
  6921.7030      -0.42193483E-01  -0.42193483E-01  -0.43146619E-01    1.5080856       -200.29700        0.0000000
  6926.8344      -0.45165576E-01  -0.45165576E-01  -0.46085538E-01    1.5008994       -195.16560        0.0000000
  6931.7399      -0.47365589E-01  -0.47365589E-01  -0.48895118E-01    1.4940508       -190.26010        0.0000000
  6936.9887      -0.51824526E-01  -0.51824526E-01  -0.51901251E-01    1.4867463       -185.01130        0.0000000
  6941.7869      -0.54345142E-01  -0.54345142E-01  -0.54649375E-01    1.4800897       -180.21310        0.0000000
  6946.8779      -0.57534656E-01  -0.57534656E-01  -0.57565203E-01    1.4730487       -175.12210        0.0000000
  6951.9154      -0.60404535E-01  -0.60404535E-01  -0.60450360E-01    1.4661040       -170.08460        0.0000000
  6956.9401      -0.63496774E-01  -0.63496774E-01  -0.63328158E-01    1.4591990       -165.05990        0.0000000
  6961.9621      -0.66253301E-01  -0.66253301E-01  -0.66204427E-01    1.4523196       -160.03790        0.0000000
  6966.8684      -0.69411878E-01  -0.69411878E-01  -0.69014437E-01    1.4456199       -155.13160        0.0000000
  6971.9156      -0.72276060E-01  -0.72276060E-01  -0.71905178E-01    1.4387495       -150.08440        0.0000000
  6976.8572      -0.75346493E-01  -0.75346493E-01  -0.74735385E-01    1.4320445       -145.14280        0.0000000
  6981.9918      -0.78131005E-01  -0.78131005E-01  -0.77676155E-01    1.4251000       -140.00820        0.0000000
  6986.8759      -0.80983962E-01  -0.80983962E-01  -0.80473481E-01    1.4185156       -135.12410        0.0000000
  6991.9328      -0.83849719E-01  -0.83849719E-01  -0.83369729E-01    1.4117202       -130.06720        0.0000000
  6996.9144      -0.86748719E-01  -0.86748719E-01  -0.86222865E-01    1.4050476       -125.08560        0.0000000
  7001.8515      -0.89708205E-01  -0.89708205E-01  -0.89050522E-01    1.3984560       -120.14850        0.0000000
  7006.9934      -0.92703649E-01  -0.92703649E-01  -0.91995467E-01    1.3916134       -115.00660        0.0000000
  7011.8412      -0.95368015E-01  -0.95368015E-01  -0.94772007E-01    1.3851833       -110.15880        0.0000000
  7016.9463      -0.98405177E-01  -0.98405177E-01  -0.97695871E-01    1.3784340       -105.05370        0.0000000
  7021.8712      -0.10117834      -0.10117834      -0.10051653        1.3719444       -100.12880        0.0000000
  7026.8765      -0.10382368      -0.10382368      -0.10338325        1.3653705       -95.123500        0.0000000
  7031.9730      -0.10672080      -0.10672080      -0.10630221        1.3586992       -90.027000        0.0000000
  7036.8361      -0.10943124      -0.10943124      -0.10908744        1.3523546       -85.163900        0.0000000
  7041.8952      -0.11203882      -0.11203882      -0.11198496        1.3457760       -80.104800        0.0000000
  7046.8567      -0.11484428      -0.11484428      -0.11482659        1.3393459       -75.143300        0.0000000
  7051.8254      -0.11746089      -0.11746089      -0.11767239        1.3329278       -70.174600        0.0000000
  7056.8965      -0.12024282      -0.12024282      -0.12057677        1.3263998       -65.103500        0.0000000
  7061.8378      -0.12257262      -0.12257262      -0.12340683        1.3200604       -60.162200        0.0000000
  7066.7546      -0.12499900      -0.12499900      -0.12622285        1.3137734       -55.245400        0.0000000
  7071.8057      -0.12740380      -0.12740380      -0.12911579        1.3073367       -50.194300        0.0000000
  7076.7476      -0.12957813      -0.12957813      -0.13194618        1.3010606       -45.252400        0.0000000
  7081.6860      -0.13160163      -0.13160163      -0.13477461        1.2948100       -40.314000        0.0000000
  7086.7913      -0.13317032      -0.13317032      -0.13769860        1.2883706       -35.208700        0.0000000
  7091.5312      -0.13442890      -0.13442890      -0.14041331        1.2824123       -30.468800        0.0000000
  7096.5552      -0.13462033      -0.13462033      -0.14329075        1.2761182       -25.444800        0.0000000
  7101.5653      -0.13600264      -0.13600264      -0.14616021        1.2698635       -20.434700        0.0000000
  7101.9395      -0.13821163      -0.13821163      -0.14637452        1.2693972       -20.060500        0.0000000
  7102.2817      -0.13848671      -0.13848671      -0.14657047        1.2689710       -19.718300        0.0000000
  7102.6987      -0.13669881      -0.13669881      -0.14680933        1.2684516       -19.301300        0.0000000
  7103.1906      -0.13361964      -0.13361964      -0.14709109        1.2678391       -18.809400        0.0000000
  7103.6399      -0.13235382      -0.13235382      -0.14734838        1.2672800       -18.360100        0.0000000
  7104.0036      -0.13184203      -0.13184203      -0.14755669        1.2668274       -17.996400        0.0000000
  7104.2818      -0.13145725      -0.13145725      -0.14771600        1.2664814       -17.718200        0.0000000
  7104.6241      -0.13105615      -0.13105615      -0.14791210        1.2660555       -17.375900        0.0000000
  7105.0950      -0.13007480      -0.13007480      -0.14818176        1.2654701       -16.905000        0.0000000
  7105.5231      -0.12972524      -0.12972524      -0.14842694        1.2649380       -16.476900        0.0000000
  7105.8763      -0.12906308      -0.12906308      -0.14862923        1.2644991       -16.123700        0.0000000
  7106.2402      -0.12820551      -0.12820551      -0.14883768        1.2640469       -15.759800        0.0000000
  7106.5721      -0.12779651      -0.12779651      -0.14902775        1.2636347       -15.427900        0.0000000
  7107.0646      -0.12650680      -0.12650680      -0.14930983        1.2630232       -14.935400        0.0000000
  7107.5251      -0.12534315      -0.12534315      -0.14957356        1.2624516       -14.474900        0.0000000
  7107.9427      -0.12418890      -0.12418890      -0.14981277        1.2619333       -14.057300        0.0000000
  7108.3176      -0.12289514      -0.12289514      -0.15002748        1.2614683       -13.682400        0.0000000
  7108.5961      -0.12159500      -0.12159500      -0.15018700        1.2611229       -13.403900        0.0000000
  7108.9711      -0.11921916      -0.11921916      -0.15040175        1.2606579       -13.028900        0.0000000
  7109.5068      -0.11541237      -0.11541237      -0.15070857        1.2599939       -12.493200        0.0000000
  7109.9354      -0.11000525      -0.11000525      -0.15095407        1.2594627       -12.064600        0.0000000
  7110.2784      -0.10302579      -0.10302579      -0.15115049        1.2590378       -11.721600        0.0000000
  7110.6214      -0.93821422E-01  -0.93821422E-01  -0.15134693        1.2586131       -11.378600        0.0000000
  7111.0073      -0.81290386E-01  -0.81290386E-01  -0.15156794        1.2581352       -10.992700        0.0000000
  7111.4683      -0.68571128E-01  -0.68571128E-01  -0.15183197        1.2575646       -10.531700        0.0000000
  7111.9186      -0.60274265E-01  -0.60274265E-01  -0.15208989        1.2570073       -10.081400        0.0000000
  7112.3583      -0.53379949E-01  -0.53379949E-01  -0.15234170        1.2564635       -9.6417000        0.0000000
  7112.6693      -0.47609055E-01  -0.47609055E-01  -0.15251983        1.2560788       -9.3307000        0.0000000
  7112.9374      -0.41369414E-01  -0.41369414E-01  -0.15267341        1.2557473       -9.0626000        0.0000000
  7113.3772      -0.34623186E-01  -0.34623186E-01  -0.15292529        1.2552036       -8.6228000        0.0000000
  7113.8278      -0.30176765E-01  -0.30176765E-01  -0.15318336        1.2546468       -8.1722000        0.0000000
  7114.2462      -0.23621269E-01  -0.23621269E-01  -0.15342302        1.2541298       -7.7538000        0.0000000
  7114.5789      -0.13749109E-01  -0.13749109E-01  -0.15361354        1.2537190       -7.4211000        0.0000000
  7114.9008      -0.24494087E-02  -0.24494087E-02  -0.15379793        1.2533214       -7.0992000        0.0000000
  7115.3194       0.16936533E-01   0.16936533E-01  -0.15403767        1.2528047       -6.6806000        0.0000000
  7115.8132       0.45836189E-01   0.45836189E-01  -0.15432047        1.2521953       -6.1868000        0.0000000
  7116.2426       0.75197507E-01   0.75197507E-01  -0.15456642        1.2516656       -5.7574000        0.0000000
  7116.6721       0.11009566       0.11009566      -0.15481241        1.2511359       -5.3279000        0.0000000
  7116.9728       0.14427841       0.14427841      -0.15498461        1.2507652       -5.0272000        0.0000000
  7117.2627       0.19080203       0.19080203      -0.15515068        1.2504077       -4.7373000        0.0000000
  7117.7783       0.26433047       0.26433047      -0.15544595        1.2497724       -4.2217000        0.0000000
  7118.2402       0.33439169       0.33439169      -0.15571050        1.2492033       -3.7598000        0.0000000
  7118.6270       0.40469157       0.40469157      -0.15593201        1.2487270       -3.3730000        0.0000000
  7118.9708       0.46594703       0.46594703      -0.15612893        1.2483037       -3.0292000        0.0000000
  7119.2931       0.51933041       0.51933041      -0.15631356        1.2479068       -2.7069000        0.0000000
  7119.7660       0.59593646       0.59593646      -0.15658438        1.2473249       -2.2340000        0.0000000
  7120.2067       0.65853366       0.65853366      -0.15683677        1.2467828       -1.7933000        0.0000000
  7120.6367       0.71506333       0.71506333      -0.15708304        1.2462540       -1.3633000        0.0000000
  7121.0344       0.76685939       0.76685939      -0.15731086        1.2457649      -0.96560000        0.0000000
  7121.3247       0.81331120       0.81331120      -0.15747713        1.2454081      -0.67530000        0.0000000
  7121.6473       0.88132224       0.88132224      -0.15766189        1.2450116      -0.35270000        0.0000000
  7122.0990       0.96982546       0.96982546      -0.15792058        1.2444567       0.99000000E-01    0.0000000
  7122.5507        1.0609442        1.0609442      -0.15817930        1.2439019       0.55070000        0.0000000
  7122.9272        1.1520083        1.1309221      -0.15839493        1.2434396       0.92720000       0.21086200E-01
  7123.2500        1.2277466        1.1316493      -0.15857977        1.2430435        1.2500000       0.96097300E-01
  7123.5943        1.3064567        1.1324140      -0.15877696        1.2426209        1.5943000       0.17404270
  7124.0785        1.3897857        1.1334703      -0.15905429        1.2420269        2.0785000       0.25631540
  7124.5412        1.4488121        1.1344589      -0.15931933        1.2414593        2.5412000       0.31435320
  7124.9718        1.4916355        1.1353604      -0.15956590        1.2409314        2.9718000       0.35627510
  7125.3377        1.5253895        1.1361131      -0.15977552        1.2404828        3.3377000       0.38927640
  7125.6392        1.5576798        1.1367236      -0.15994816        1.2401134        3.6392000       0.42095620
  7125.9945        1.6054069        1.1374325      -0.16015165        1.2396781        3.9945000       0.46797440
  7126.5329        1.6685989        1.1384844      -0.16046001        1.2390187        4.5329000       0.53011450
  7126.9744        1.7280946        1.1393272      -0.16071291        1.2384781        4.9744000       0.58876740
  7127.3191        1.7788395        1.1399729      -0.16091031        1.2380563        5.3191000       0.63886660
  7127.6315        1.8158746        1.1405488      -0.16108922        1.2376740        5.6315000       0.67532580
  7127.9977        1.8452568        1.1412129      -0.16129900        1.2372259        5.9977000       0.70404390
  7128.5149        1.8495809        1.1421302      -0.16159520        1.2365934        6.5149000       0.70745070
  7128.9244        1.8256022        1.1428397      -0.16182972        1.2360927        6.9244000       0.68276250
  7129.3555        1.7821155        1.1435708      -0.16207661        1.2355658        7.3555000       0.63854470
  7129.7111        1.7332258        1.1441617      -0.16228032        1.2351312        7.7111000       0.58906410
  7129.9806        1.6808437        1.1446022      -0.16243467        1.2348020        7.9806000       0.53624150
  7130.3903        1.5977283        1.1452598      -0.16266929        1.2343017        8.3903000       0.45246850
  7130.8539        1.5268502        1.1459867      -0.16293482        1.2337356        8.8539000       0.38086350
  7131.2852        1.4647408        1.1466467      -0.16318185        1.2332091        9.2852000       0.31809410
  7131.6087        1.4147310        1.1471314      -0.16336715        1.2328143        9.6087000       0.26759960
  7131.9323        1.3753900        1.1476074      -0.16355246        1.2324196        9.9323000       0.22778260
  7132.3314        1.3349634        1.1481825      -0.16378104        1.2319328        10.331400       0.18678090
  7132.8384        1.2963582        1.1488943      -0.16407143        1.2313146        10.838400       0.14746390
  7133.2484        1.2711328        1.1494545      -0.16430625        1.2308149        11.248400       0.12167830
  7133.6585        1.2517658        1.1500011      -0.16454110        1.2303153        11.658500       0.10176470
  7134.0146        1.2359428        1.1504648      -0.16474506        1.2298814        12.014600       0.85478000E-01
  7134.3060        1.2211765        1.1508367      -0.16491196        1.2295265        12.306000       0.70339800E-01
  7134.7701        1.1994605        1.1514152      -0.16517779        1.2289614        12.770100       0.48045300E-01
  7135.2559        1.1813965        1.1520025      -0.16545603        1.2283701        13.255900       0.29394000E-01
  7135.6770        1.1658542        1.1524967      -0.16569720        1.2278577        13.677000       0.13357500E-01
  7135.9902        1.1533380        1.1528553      -0.16587655        1.2274768        13.990200       0.48270000E-03
  7136.3141        1.1429410        1.1532183      -0.16606210        1.2270828        14.314100      -0.10277300E-01
  7136.7570        1.1317763        1.1537016      -0.16631571        1.2265444        14.757000      -0.21925300E-01
  7137.2322        1.1234352        1.1542038      -0.16658792        1.2259668        15.232200      -0.30768600E-01
  7137.6428        1.1194838        1.1546240      -0.16682304        1.2254680        15.642800      -0.35140200E-01
  7138.0533        1.1183458        1.1550317      -0.16705819        1.2249692        16.053300      -0.36685900E-01
  7138.3667        1.1192256        1.1553345      -0.16723766        1.2245887        16.366700      -0.36108900E-01
  7138.6801        1.1232701        1.1556301      -0.16741715        1.2242082        16.680100      -0.32360000E-01
  7139.1016        1.1326786        1.1560165      -0.16765856        1.2236966        17.101600      -0.23337900E-01
  7139.5880        1.1450271        1.1564465      -0.16793715        1.2231064        17.588000      -0.11419400E-01
  7139.9664        1.1576786        1.1567693      -0.16815385        1.2226474        17.966400       0.90930000E-03
  7140.3015        1.1711663        1.1570467      -0.16834581        1.2222410        18.301500       0.14119600E-01
  7140.6043        1.1846449        1.1572906      -0.16851921        1.2218739        18.604300       0.27354300E-01
  7141.1017        1.2032606        1.1576774      -0.16880411        1.2212710        19.101700       0.45583200E-01
  7141.5451        1.2161074        1.1580079      -0.16905808        1.2207337        19.545100       0.58099500E-01
  7141.9670        1.2251375        1.1583098      -0.16929969        1.2202227        19.967000       0.66827700E-01
  7142.3456        1.2293467        1.1585705      -0.16951655        1.2197642        20.345600       0.70776200E-01
  7142.6810        1.2305564        1.1587934      -0.16970864        1.2193581        20.681000       0.71763000E-01
  7143.0165        1.2285678        1.1590088      -0.16990075        1.2189521        21.016500       0.69559000E-01
  7143.5034        1.2203257        1.1593084      -0.17017965        1.2183629        21.503400       0.61017300E-01
  7143.9688        1.2097022        1.1595803      -0.17044620        1.2178000        21.968800       0.50121900E-01
  7144.3693        1.1974111        1.1598030      -0.17067558        1.2173157        22.369300       0.37608100E-01
  7144.6616        1.1865185        1.1599591      -0.17084299        1.2169624        22.661600       0.26559400E-01
  7145.0081        1.1728950        1.1601371      -0.17104141        1.2165436        23.008100       0.12757900E-01
  7145.5061        1.1548904        1.1603798      -0.17132668        1.2159418        23.506100      -0.54894000E-02
  7145.9285        1.1390832        1.1605735      -0.17156857        1.2154317        23.928500      -0.21490300E-01
  7146.1342        1.1320942        1.1606639      -0.17168642        1.2151832        24.134200      -0.28569700E-01
  7147.1308        1.0998926        1.1610653      -0.17225719        1.2139803        25.130800      -0.61172700E-01
  7148.3769        1.0672428        1.1614840      -0.17297088        1.2124774        26.376900      -0.94241200E-01
  7149.4825        1.0462001        1.1617804      -0.17360411        1.2111451        27.482500      -0.11558030
  7150.7729        1.0305708        1.1620399      -0.17434313        1.2095915        28.772900      -0.13146910
  7151.9661        1.0203347        1.1621998      -0.17502651        1.2081562        29.966100      -0.14186510
  7153.2031        1.0129244        1.1622872      -0.17573499        1.2066694        31.203100      -0.14936280
  7154.5382        1.0093910        1.1622953      -0.17649969        1.2050662        32.538200      -0.15290430
  7155.7110        1.0107830        1.1622315      -0.17717138        1.2036593        33.711000      -0.15144850
  7157.0580        1.0182706        1.1620796      -0.17794286        1.2020448        35.058000      -0.14380900
  7158.3621        1.0302146        1.1618560      -0.17868974        1.2004833        36.362100      -0.13164140
  7159.6775        1.0426520        1.1615576      -0.17944313        1.1989096        37.677500      -0.11890560
  7161.1349        1.0576181        1.1611459      -0.18027780        1.1971680        39.134900      -0.10352780
  7162.3752        1.0716599        1.1607317      -0.18098818        1.1956872        40.375200      -0.89071800E-01
  7163.8554        1.0946207        1.1601651      -0.18183598        1.1939217        41.855400      -0.65544400E-01
  7165.2383        1.1318477        1.1595688      -0.18262800        1.1922740        43.238300      -0.27721100E-01
  7166.5673        1.1753118        1.1589386      -0.18338914        1.1906921        44.567300       0.16373200E-01
  7168.1256        1.2199916        1.1581334      -0.18428167        1.1888392        46.125600       0.61858200E-01
  7169.6520        1.2569450        1.1572807      -0.18515587        1.1870263        47.652000       0.99664300E-01
  7171.0481        1.2828485        1.1564500      -0.18595548        1.1853699        49.048100       0.12639850
  7172.5757        1.2985035        1.1554906      -0.18683042        1.1835594        50.575700       0.14301290
